time,altitude,phase,airspeed,ergy
6.88432e+06,70317.4,240.676,2099.83,2.82188e+06,2.82188e+06
6.88433e+06,70321.8,238.881,2099.8,2.82185e+06,2.82185e+06
6.88434e+06,70323.3,237.086,2099.79,2.82185e+06,2.82185e+06
6.88435e+06,70324.8,235.291,2099.78,2.82184e+06,2.82185e+06
6.88436e+06,70324,233.503,2090.83,2.80309e+06,2.80309e+06
6.88437e+06,70317.3,231.716,2090.86,2.80309e+06,2.80309e+06
6.88438e+06,70303.1,229.938,2090.91,2.80308e+06,2.80308e+06
6.88439e+06,70282.1,228.151,2090.99,2.80308e+06,2.80308e+06
6.8844e+06,70255,226.363,2091.09,2.80307e+06,2.80307e+06
6.88441e+06,70221.7,224.576,2091.21,2.80307e+06,2.80307e+06
6.88442e+06,70182.4,222.788,2091.35,2.80306e+06,2.80306e+06
6.88443e+06,70137.1,221,2091.52,2.80305e+06,2.80306e+06
6.88444e+06,70085.8,219.211,2091.71,2.80305e+06,2.80305e+06
6.88445e+06,70028.7,217.423,2091.92,2.80304e+06,2.80304e+06
6.88446e+06,69964.5,215.6,2092.16,2.80304e+06,2.80304e+06
6.88447e+06,69895.9,213.798,2092.42,2.80302e+06,2.80303e+06
6.88448e+06,69819.3,211.965,2092.7,2.80301e+06,2.80302e+06
6.88449e+06,69742.2,210.247,2092.98,2.80299e+06,2.803e+06
6.8845e+06,69654.4,208.413,2093.3,2.80297e+06,2.80298e+06
6.88451e+06,69560.9,206.579,2093.64,2.80294e+06,2.80295e+06
6.88452e+06,69468.1,204.858,2093.97,2.80291e+06,2.80291e+06
6.88453e+06,69363.8,203.023,2094.34,2.80286e+06,2.80287e+06
6.88454e+06,69261.2,201.302,2094.71,2.80282e+06,2.80282e+06
6.88455e+06,69146.6,199.465,2095.11,2.80276e+06,2.80276e+06
6.88456e+06,69026.9,197.628,2095.53,2.80269e+06,2.8027e+06
6.88457e+06,68910.1,195.905,2095.93,2.80262e+06,2.80262e+06
6.88458e+06,68780.8,194.066,2096.38,2.80253e+06,2.80253e+06
6.88459e+06,68646.7,192.227,2096.83,2.80243e+06,2.80243e+06
6.8846e+06,68516.7,190.501,2097.27,2.80232e+06,2.80233e+06
6.88461e+06,68373.8,188.66,2097.75,2.8022e+06,2.80221e+06
6.88462e+06,68235.8,186.934,2098.21,2.80207e+06,2.80208e+06
6.88463e+06,68084.5,185.091,2098.71,2.80192e+06,2.80193e+06
6.88464e+06,67929,183.248,2099.22,2.80176e+06,2.80177e+06
6.88465e+06,67779.7,181.519,2099.71,2.8016e+06,2.80161e+06
6.88466e+06,67616.7,179.673,2100.23,2.80141e+06,2.80142e+06
6.88467e+06,67450,177.827,2100.76,2.8012e+06,2.80121e+06
6.88468e+06,67290.5,176.096,2101.26,2.80099e+06,2.801e+06
6.88469e+06,67117,174.248,2101.8,2.80075e+06,2.80076e+06
6.8847e+06,66951.3,172.514,2102.31,2.80051e+06,2.80052e+06
6.88471e+06,66771.5,170.665,2102.86,2.80023e+06,2.80024e+06
6.88472e+06,66588.7,168.814,2103.41,2.79993e+06,2.79994e+06
6.88473e+06,66414.7,167.078,2103.92,2.79962e+06,2.79964e+06
6.88474e+06,66226.3,165.225,2104.47,2.79928e+06,2.79929e+06
6.88475e+06,66035.2,163.371,2105.02,2.79891e+06,2.79893e+06
6.88476e+06,65853.8,161.633,2105.53,2.79855e+06,2.79856e+06
6.88477e+06,65656.3,159.762,2106.08,2.79813e+06,2.79815e+06
6.88478e+06,65468.9,158.007,2106.59,2.79772e+06,2.79773e+06
6.88479e+06,65268.4,156.15,2107.13,2.79726e+06,2.79727e+06
6.8848e+06,65078.5,154.407,2107.64,2.79680e+06,2.79682e+06
6.88481e+06,64874,152.547,2108.17,2.79629e+06,2.79631e+06
6.88482e+06,64667.4,150.687,2108.7,2.79576e+06,2.79577e+06
6.88483e+06,64472,148.941,2109.19,2.79523e+06,2.79524e+06
6.88484e+06,64261.8,147.078,2109.7,2.79464e+06,2.79465e+06
6.88485e+06,64049.9,145.214,2110.22,2.79402e+06,2.79404e+06
6.88486e+06,63849.6,143.466,2110.69,2.79342e+06,2.79343e+06
6.88487e+06,63634.3,141.6,2111.19,2.79275e+06,2.79276e+06
6.88488e+06,63431,139.85,2111.65,2.79209e+06,2.79211e+06
6.88489e+06,63212.6,137.982,2112.14,2.79136e+06,2.79138e+06
6.8849e+06,62992.6,136.113,2112.61,2.79061e+06,2.79062e+06
6.88491e+06,62785,134.36,2113.05,2.78987e+06,2.78988e+06
6.88492e+06,62562.1,132.489,2113.52,2.78906e+06,2.78907e+06
6.88493e+06,62337.6,130.617,2113.97,2.78821e+06,2.78822e+06
6.88494e+06,62125.8,128.861,2114.39,2.78739e+06,2.7874e+06
6.88495e+06,61898.4,126.987,2114.83,2.78648e+06,2.7865e+06
6.88496e+06,61683.8,125.23,2115.23,2.7856e+06,2.78562e+06
6.88497e+06,61453.4,123.354,2115.65,2.78463e+06,2.78464e+06
6.88498e+06,61221.3,121.477,2116.06,2.78362e+06,2.78364e+06
6.88499e+06,61002.3,119.716,2116.43,2.78264e+06,2.78266e+06
6.885e+06,60766.9,117.837,2116.82,2.78156e+06,2.78157e+06
6.88501e+06,60529.8,115.957,2117.19,2.78043e+06,2.78044e+06
6.88502e+06,60305.9,114.194,2117.53,2.77933e+06,2.77935e+06
6.88503e+06,60065.1,112.312,2117.88,2.77812e+06,2.77813e+06
6.88504e+06,59835.5,110.532,2118.19,2.77692e+06,2.77694e+06
6.88505e+06,59592.5,108.663,2118.51,2.77562e+06,2.77564e+06
6.88506e+06,59347.3,106.793,2118.8,2.77426e+06,2.77428e+06
6.88507e+06,59111.4,105.01,2119.07,2.77291e+06,2.77293e+06
6.88508e+06,58861.2,103.138,2119.34,2.77144e+06,2.77146e+06
6.88509e+06,58608.4,101.266,2119.58,2.7699e+06,2.76992e+06
6.8851e+06,58364.7,99.4804,2119.79,2.76837e+06,2.76838e+06
6.88511e+06,58105.9,97.6058,2120,2.76669e+06,2.76671e+06
6.88512e+06,57843.6,95.7302,2120.18,2.76494e+06,2.76496e+06
6.88513e+06,57590.4,93.9424,2120.33,2.7632e+06,2.76322e+06
6.88514e+06,57320.8,92.0651,2120.47,2.76129e+06,2.76131e+06
6.88515e+06,57047,90.1869,2120.59,2.7593e+06,2.75932e+06
6.88516e+06,56781.9,88.3966,2120.68,2.75732e+06,2.75734e+06
6.88517e+06,56498.9,86.5168,2120.75,2.75516e+06,2.75518e+06
6.88518e+06,56210.7,84.636,2120.8,2.75289e+06,2.75291e+06
6.88519e+06,55930.9,82.8433,2120.82,2.75064e+06,2.75066e+06
6.8852e+06,55631.2,80.9609,2120.81,2.74817e+06,2.74819e+06
6.88521e+06,55325.1,79.0776,2120.78,2.74558e+06,2.7456e+06
6.88522e+06,55027,77.2825,2120.72,2.743e+06,2.74302e+06
6.88523e+06,54706.7,75.3976,2120.63,2.74017e+06,2.74019e+06
6.88524e+06,54378.5,73.5119,2120.5,2.73719e+06,2.73721e+06
6.88525e+06,54057.8,71.7145,2120.34,2.73421e+06,2.73423e+06
6.88526e+06,53712.1,69.8272,2120.14,2.73092e+06,2.73094e+06
6.88527e+06,53356.6,67.9391,2119.89,2.72746e+06,2.72748e+06
6.88528e+06,53008,66.1394,2119.61,2.72398e+06,2.724e+06
6.88529e+06,52631.1,64.2498,2119.26,2.72013e+06,2.72015e+06
6.8853e+06,52242.1,62.3594,2118.86,2.71604e+06,2.71607e+06
6.88531e+06,51859.3,60.5576,2118.42,2.71193e+06,2.71195e+06
6.88532e+06,51444,58.6658,2117.88,2.70734e+06,2.70737e+06
6.88533e+06,51028.1,56.8338,2117.29,2.70264e+06,2.70265e+06
6.88534e+06,50596.2,54.9929,2116.61,2.69759e+06,2.6976e+06
6.88535e+06,50137,53.1066,2115.81,2.69207e+06,2.69209e+06
6.88536e+06,49671.1,51.2645,2114.93,2.68631e+06,2.68632e+06
6.88537e+06,49174.5,49.3772,2113.9,2.67998e+06,2.67999e+06
6.88538e+06,48669.3,47.5342,2112.76,2.67334e+06,2.67335e+06
6.88539e+06,48129.5,45.646,2111.44,2.66601e+06,2.66603e+06
6.8854e+06,47579,43.8023,2109.97,2.65828e+06,2.6583e+06
6.88541e+06,46989.2,41.9137,2108.26,2.64970e+06,2.64972e+06
6.88542e+06,46386,40.0698,2106.35,2.64059e+06,2.64061e+06
6.88543e+06,45737.9,38.1813,2104.11,2.63039e+06,2.63042e+06
6.88544e+06,45073.2,36.3378,2101.6,2.61948e+06,2.6195e+06
6.88545e+06,44357,34.4501,2098.64,2.60717e+06,2.6072e+06
6.88546e+06,43620.2,32.6079,2095.3,2.59389e+06,2.59392e+06
6.88547e+06,42823.7,30.7222,2091.33,2.57878e+06,2.57881e+06
6.88548e+06,42001.6,28.8828,2086.78,2.56225e+06,2.56228e+06
6.88549e+06,41109.6,27.0009,2081.32,2.54321e+06,2.54324e+06
6.8855e+06,40185.6,25.1664,2075.01,2.52216e+06,2.52219e+06
6.88551e+06,39179,23.2911,2067.28,2.49745e+06,2.49749e+06
6.88552e+06,38131.7,21.4651,2058.16,2.46957e+06,2.46961e+06
6.88553e+06,36999.1,19.6213,2046.78,2.4364e+06,2.43642e+06
6.88554e+06,35775.1,17.7697,2032.24,2.39606e+06,2.39609e+06
6.88555e+06,34475.9,15.9518,2013.81,2.34742e+06,2.34744e+06
6.88556e+06,33076.4,14.1497,1990,2.28744e+06,2.28746e+06
6.88557e+06,31564,12.3688,1959.02,2.21292e+06,2.21295e+06
6.88558e+06,29923.7,10.6169,1918.12,2.11907e+06,2.1191e+06
6.88559e+06,28139.6,8.90487,1862.87,1.9987e+06,1.99874e+06
6.8856e+06,26170.7,7.22925,1786.14,1.84103e+06,1.84107e+06
6.88561e+06,24049.2,5.65242,1682.92,1.64282e+06,1.64286e+06
6.88562e+06,21744.9,4.18335,1544.79,1.39893e+06,1.39897e+06
6.88563e+06,19270.7,2.86075,1344.27,1.08659e+06,1.08663e+06
6.88564e+06,16850.3,1.81769,967.637,628848,628891
6.88565e+06,14608.2,1.10039,650.312,351265,351305
6.88565e+06,14394.4,1.04454,622.41,331511,331551
6.88565e+06,14182.8,0.991334,595.303,313028,313067
6.88565e+06,13973.3,0.940697,569.017,295764,295803
6.88565e+06,13766,0.892558,543.537,279648,279687
6.88565e+06,13561,0.846847,518.847,264611,264650
6.88565e+06,13358.3,0.803496,494.955,250600,250637
6.88565e+06,13158,0.762432,471.885,237567,237604
6.88565e+06,12960.1,0.723585,449.628,225454,225491
6.88565e+06,12764.9,0.686888,428.012,214133,214170
6.88566e+06,12572.3,0.652292,406.819,203477,203513
6.88566e+06,12383,0.619802,384.592,192901,192936
6.88566e+06,12198.7,0.589606,358.899,181615,181649
6.88566e+06,12021.5,0.561967,330.667,170213,170245
6.88566e+06,11852.2,0.536871,305.614,160647,160678
6.88566e+06,11687.6,0.513757,289.829,154396,154427
6.88566e+06,11523.8,0.491974,280.381,150156,150187
6.88566e+06,11358.5,0.47117,274.074,146846,146878
6.88566e+06,11190.8,0.451174,269.339,143975,144007
6.88566e+06,11020.3,0.4319,265.387,141306,141338
6.88567e+06,10847,0.413306,261.884,138742,138775
6.88567e+06,10670.8,0.395362,258.749,136258,136292
6.88567e+06,10491.9,0.378041,255.924,133836,133870
6.88567e+06,10310.2,0.36132,253.359,131462,131496
6.88567e+06,10126,0.345181,251.008,129122,129157
6.88567e+06,9939.39,0.329605,248.835,126808,126843
6.88567e+06,9750.39,0.314577,246.806,124510,124546
6.88567e+06,9559.21,0.300083,244.892,122223,122260
6.88567e+06,9365.99,0.286109,243.068,119941,119978
6.88567e+06,9170.91,0.272643,241.312,117660,117698
6.88568e+06,8974.13,0.259674,239.605,115377,115414
6.88568e+06,8775.83,0.247191,237.934,113089,113127
6.88568e+06,8576.14,0.23518,236.376,110816,110855
6.88568e+06,8375.15,0.223625,234.942,108562,108600
6.88568e+06,8172.94,0.212512,233.609,106320,106359
6.88568e+06,7969.6,0.201825,232.356,104086,104125
6.88568e+06,7765.24,0.19155,231.167,101858,101897
6.88568e+06,7559.95,0.181676,230.025,99632,99670.9
6.88568e+06,7353.83,0.172189,228.918,97405,97444.9
6.88568e+06,7147.01,0.163078,227.834,95178,95217.4
6.88569e+06,6939.59,0.154331,226.765,92947,92987.2
6.88569e+06,6731.67,0.145937,225.702,90714,90753.4
6.88569e+06,6523.37,0.137885,224.638,88476,88515.6
6.88569e+06,6314.8,0.130164,223.568,86233,86273.3
6.88569e+06,6106.06,0.122765,222.485,83986,84026.5
6.88569e+06,5897.26,0.115677,221.385,81735,81775.2
6.88569e+06,5688.51,0.10889,220.265,79479,79519.5
6.88569e+06,5479.89,0.102394,219.12,77220,77259.8
6.88569e+06,5271.53,0.0961803,217.948,74956,74996.4
6.88569e+06,5063.51,0.0902394,216.746,72690,72730
6.8857e+06,4855.92,0.0845621,215.517,70422,70461.9
6.8857e+06,4648.86,0.0791392,214.263,68154,68193.5
6.8857e+06,4442.39,0.0739619,212.984,65886,65926
6.8857e+06,4236.61,0.0690213,211.684,63621,63660.7
6.8857e+06,4031.57,0.0643087,210.364,61359,61398.8
6.8857e+06,3827.35,0.0598155,209.025,59102,59141.3
6.8857e+06,3623.99,0.0555335,207.67,56850,56889.2
6.8857e+06,3421.56,0.0514545,206.299,54604,54643.5
6.8857e+06,3220.11,0.0475703,204.915,52366,52405
6.8857e+06,3019.67,0.0438733,203.519,50136,50174.7
6.88571e+06,2820.3,0.0403557,202.113,47914,47953.1
6.88571e+06,2622.03,0.0370103,200.697,45703,45741.1
6.88571e+06,2424.9,0.0338297,199.273,43501,43539.4
6.88571e+06,2228.94,0.030807,197.843,41310,41348.4
6.88571e+06,2034.17,0.0279353,196.407,39131,39168.8
6.88571e+06,1840.62,0.0252081,194.967,36964,37001.2
6.88571e+06,1648.32,0.022619,193.523,34808,34845.8
6.88571e+06,1457.28,0.0201619,192.077,32666,32703.2
6.88571e+06,1267.53,0.0178307,190.63,30537,30573.8
6.88571e+06,1079.07,0.0156197,189.182,28421,28458
6.88572e+06,891.955,0.0135645,187.669,26344,26344
6.88572e+06,717.651,0.0116952,168.291,21190,21190.2
6.88572e+06,567.369,0.0101011,130.13,14026,14025.6
6.88572e+06,451.128,0.00833831,100.907,9512,9511.89
6.88572e+06,361.033,0.0065587,78.2516,6600,6600.05
6.88572e+06,291.27,0.00533652,60.7116,4698,4697.94
6.88572e+06,242.024,0.00474779,48.2482,3536,3536.43
6.88572e+06,199.275,0.0043952,37.5411,2658,2658.24
6.88572e+06,165.049,0.00409764,28.9668,2038,2037.67
6.88572e+06,141,0.00384263,22.9498,1646,1645.76
6.88573e+06,122.094,0.00355771,18.1956,1363,1362.63
6.88573e+06,105.074,0.0031914,20.5716,1242,1241.84
6.88573e+06,85.0091,0.00286011,17.9636,995,994.881
6.88573e+06,69.3416,0.00257732,14.0038,778,777.983
6.88573e+06,57.2125,0.0023232,10.937,621,620.818
6.88573e+06,47.8207,0.00209805,8.55657,506,505.531
6.88573e+06,41.1812,0.00191879,6.86726,427,427.401
6.88573e+06,35.4052,0.00174451,5.39275,362,361.727
6.88573e+06,30.9315,0.00159355,4.24364,312,312.323
6.88573e+06,27.4665,0.00146334,3.34849,275,274.948
6.88574e+06,24.7825,0.00135135,2.64981,247,246.534
6.88574e+06,22.8847,0.00126489,2.14924,227,226.723
6.88574e+06,21.2068,0.00120101,1.69663,209,209.399
6.88574e+06,20.0522,0.00114001,1.11945,197,197.265
6.88574e+06,19.3152,0.0010782,0.844889,190,189.768
6.88574e+06,18.8498,0.0010185,0.690654,185,185.086
6.88574e+06,18.4282,0.000915977,1.02232,181,181.236
6.88574e+06,17.457,0.000702016,1.85549,173,172.912
6.88574e+06,14.7376,0.000318627,3.31601,150,150.021
6.88574e+06,7.13281,0,4.11205,78,78.4026
