time,altitude,phase,airspeed,specific_energy
1.632677e+07,70570.47,233.5534,2099.197,2822754,2822754
1.632678e+07,70569.98,231.7741,2099.253,2822867,2822867
1.632679e+07,70569.26,229.9733,2099.256,2822869,2822869
1.63268e+07,70568.51,228.1724,2099.258,2822867,2822867
1.632681e+07,70567.69,226.3931,2099.261,2822865,2822865
1.632682e+07,70566.78,224.5922,2099.263,2822864,2822864
1.632683e+07,70565.78,222.7914,2099.266,2822862,2822862
1.632684e+07,70561.95,221.0151,2089.844,2803097,2803097
1.632685e+07,70549.87,219.2199,2089.888,2803094,2803094
1.632686e+07,70530.49,217.4198,2089.959,2803089,2803089
1.632687e+07,70504.51,215.6196,2090.054,2803085,2803085
1.632688e+07,70473.1,213.8764,2090.17,2803080,2803080
1.632689e+07,70434.57,212.0759,2090.312,2803074,2803074
1.63269e+07,70389.26,210.2751,2090.479,2803068,2803068
1.632691e+07,70337.09,208.474,2090.673,2803062,2803062
1.632692e+07,70280.86,206.7297,2090.881,2803055,2803055
1.632693e+07,70217.12,204.928,2091.117,2803048,2803048
1.632694e+07,70146.66,203.1258,2091.378,2803041,2803041
1.632695e+07,70069.46,201.3232,2091.666,2803036,2803036
1.632696e+07,69988.23,199.5488,2091.969,2803029,2803029
1.632697e+07,69900.36,197.7452,2092.295,2803020,2803020
1.632698e+07,69805.15,195.9411,2092.646,2803005,2803005
1.632699e+07,69706.51,194.1508,2093.007,2802985,2802985
1.6327e+07,69604.11,192.4172,2093.38,2802959,2802959
1.632701e+07,69492.9,190.6113,2093.782,2802925,2802925
1.632702e+07,69376.29,188.8048,2094.2,2802882,2802882
1.632703e+07,69256.36,187.0263,2094.627,2802829,2802829
1.632704e+07,69128.35,185.1897,2095.077,2802763,2802763
1.632705e+07,69000.56,183.4528,2095.523,2802688,2802688
1.632706e+07,68864.85,181.6435,2095.991,2802598,2802598
1.632707e+07,68722.17,179.8333,2096.478,2802492,2802492
1.632708e+07,68577.12,178.0223,2096.967,2802373,2802373
1.632709e+07,68427.65,176.2393,2097.466,2802238,2802238
1.63271e+07,68278.17,174.4676,2097.96,2802092,2802092
1.632711e+07,68121.67,172.6613,2098.471,2801926,2801926
1.632712e+07,67962.72,170.8722,2098.984,2801745,2801745
1.632713e+07,67798.91,169.0678,2099.506,2801544,2801544
1.632714e+07,67630.31,167.2588,2100.036,2801322,2801322
1.632715e+07,67458.71,165.4526,2100.569,2801081,2801081
1.632716e+07,67284.63,163.6562,2101.101,2800819,2800819
1.632717e+07,67106.46,161.8517,2101.638,2800533,2800533
1.632718e+07,66924.27,160.0391,2102.177,2800220,2800220
1.632719e+07,66740.76,158.2435,2102.711,2799884,2799884
1.63272e+07,66553.09,156.4325,2103.246,2799520,2799520
1.632721e+07,66361.32,154.617,2103.783,2799125,2799125
1.632722e+07,66168.24,152.8113,2104.314,2798705,2798705
1.632723e+07,65973.2,151.0082,2104.839,2798257,2798257
1.632724e+07,65773.93,149.1933,2105.364,2797776,2797776
1.632725e+07,65571.26,147.3738,2105.888,2797263,2797263
1.632726e+07,65366.88,145.5569,2106.404,2796721,2796721
1.632727e+07,65161.72,143.7535,2106.911,2796152,2796152
1.632728e+07,64952.53,141.9346,2107.416,2795546,2795546
1.632729e+07,64741.45,140.1184,2107.915,2794910,2794910
1.63273e+07,64529.38,138.312,2108.404,2794246,2794246
1.632731e+07,64312.95,136.4864,2108.891,2793542,2793542
1.632732e+07,64094.3,134.6599,2109.372,2792805,2792805
1.632733e+07,63875.67,132.8505,2109.841,2792043,2792043
1.632734e+07,63653.58,131.0292,2110.305,2791243,2791243
1.632735e+07,63429.35,129.2069,2110.763,2790410,2790410
1.632736e+07,63202.06,127.3763,2111.215,2789539,2789539
1.632737e+07,62973.08,125.5483,2111.658,2788637,2788637
1.632738e+07,62744.25,123.7376,2112.09,2787710,2787710
1.632739e+07,62510.01,121.8966,2112.521,2786735,2786735
1.63274e+07,62275.42,120.0765,2112.941,2785734,2785734
1.632741e+07,62038.11,118.2482,2113.354,2784697,2784697
1.632742e+07,61798.02,116.4151,2113.761,2783621,2783621
1.632743e+07,61555.55,114.5811,2114.159,2782506,2782506
1.632744e+07,61313.09,112.7643,2114.544,2781364,2781364
1.632745e+07,61066.16,110.9283,2114.923,2780169,2780169
1.632746e+07,60815.63,109.0912,2115.292,2778926,2778926
1.632747e+07,60563.39,107.2567,2115.649,2777639,2777639
1.632748e+07,60307.83,105.4176,2115.994,2776301,2776301
1.632749e+07,60049.87,103.5775,2116.325,2774912,2774912
1.63275e+07,59788.32,101.7364,2116.643,2773463,2773463
1.632751e+07,59525.67,99.90898,2116.942,2771965,2771965
1.632752e+07,59257.49,98.06956,2117.226,2770386,2770386
1.632753e+07,58987.36,96.23651,2117.488,2768745,2768745
1.632754e+07,58711.81,94.39144,2117.73,2767017,2767017
1.632755e+07,58432.83,92.54539,2117.949,2765209,2765209
1.632756e+07,58147.9,90.69469,2118.145,2763303,2763303
1.632757e+07,57862.43,88.86517,2118.314,2761331,2761331
1.632758e+07,57568.07,87.00887,2118.458,2759234,2759234
1.632759e+07,57271.52,85.16641,2118.574,2757057,2757057
1.63276e+07,56967.72,83.31563,2118.665,2754764,2754764
1.632761e+07,56658.01,81.46392,2118.726,2752358,2752358
1.632762e+07,56343.9,79.6261,2118.756,2749848,2749848
1.632763e+07,56021.21,77.77259,2118.756,2747201,2747201
1.632764e+07,55692.66,75.92558,2118.723,2744433,2744433
1.632765e+07,55353.65,74.06287,2118.65,2741493,2741493
1.632766e+07,55009.78,72.21781,2118.536,2738423,2738423
1.632767e+07,54655.18,70.36078,2118.38,2735172,2735172
1.632768e+07,54294.06,68.51773,2118.181,2731772,2731772
1.632769e+07,53919.96,66.65902,2117.932,2728156,2728156
1.63277e+07,53536.61,64.80692,2117.63,2724349,2724349
1.632771e+07,53140.1,62.94659,2117.268,2720303,2720303
1.632772e+07,52730.35,61.08177,2116.841,2716004,2716004
1.632773e+07,52309.74,59.22734,2116.345,2711465,2711465
1.632774e+07,51874.06,57.36847,2115.768,2706625,2706625
1.632775e+07,51421.25,55.50146,2115.099,2701445,2701445
1.632776e+07,50956.65,53.65241,2114.337,2695965,2695965
1.632777e+07,50468.7,51.78043,2113.454,2690028,2690028
1.632778e+07,49967.73,49.93024,2112.455,2683733,2683733
1.632779e+07,49443.41,48.0684,2111.307,2676921,2676921
1.63278e+07,48896.04,46.20243,2109.992,2669559,2669559
1.632781e+07,48326.07,44.33615,2108.493,2661611,2661611
1.632782e+07,47731.85,42.48086,2106.781,2653007,2653007
1.632783e+07,47105.04,40.60689,2104.8,2643554,2643554
1.632784e+07,46456.13,38.75538,2102.543,2633328,2633328
1.632785e+07,45771.1,36.89303,2099.92,2622022,2622022
1.632786e+07,45051,35.02755,2096.876,2609530,2609530
1.632787e+07,44294.42,33.17414,2093.318,2595645,2595645
1.632788e+07,43493.15,31.31091,2089.126,2580052,2580052
1.632789e+07,42648,29.45322,2084.21,2562578,2562578
1.63279e+07,41751.27,27.59426,2078.417,2542842,2542842
1.632791e+07,40803.48,25.74218,2071.639,2520638,2520638
1.632792e+07,39793.44,23.89784,2063.557,2495227,2495227
1.632793e+07,38712.32,22.04402,2053.788,2465772,2465772
1.632794e+07,37563.86,20.21541,2041.943,2431557,2431557
1.632795e+07,36335.99,18.3957,2027.113,2390696,2390696
1.632796e+07,35006.12,16.57352,2007.964,2340439,2340439
1.632797e+07,33575.63,14.76788,1983.164,2278391,2278391
1.632798e+07,32035.21,12.99886,1950.883,2201309,2201309
1.632799e+07,30357.22,11.24616,1908.028,2103747,2103747
1.6328e+07,28542.65,9.549206,1850.431,1979335,1979335
1.632801e+07,26562.05,7.910613,1771.152,1818018,1818018
1.632802e+07,24396.71,6.341849,1662.407,1611779,1611779
1.632803e+07,22043.46,4.887737,1516.67,1358728,1358728
1.632804e+07,19537.52,3.597291,1328.531,1068117,1068117
1.632805e+07,16919.73,2.499916,1100.658,767154,767154
1.632806e+07,14260.05,1.623756,847.3435,495639,495639.1
1.632806e+07,13987.62,1.546945,820.9293,471055,471055
1.632806e+07,13732.01,1.478375,796.1592,448632,448631.6
1.632806e+07,13482.76,1.412036,772.0434,427385,427384.6
1.632806e+07,13214.17,1.342673,746.1256,405189,405189.3
1.632806e+07,12967.69,1.280941,722.4303,385475,385474.5
1.632806e+07,12702.39,1.216531,697.0495,364966,364966
1.632807e+07,12444.08,1.154655,672.4901,345717,345717.4
1.632807e+07,12202.81,1.099763,649.7144,328388,328387.8
1.632807e+07,11958.49,1.046974,626.8399,311485,311484.5
1.632807e+07,11696.62,0.9900609,602.5671,294093,294093.3
1.632807e+07,11456.82,0.9416327,580.5962,278832,278831.6
1.632807e+07,11224.18,0.8951997,559.5265,264622,264622.2
1.632807e+07,10979.54,0.8471056,537.636,250300,250299.9
1.632807e+07,10732.9,0.8012605,515.8595,236495,236494.9
1.632807e+07,10503.16,0.7608945,495.8655,224205,224204.7
1.632807e+07,10280.7,0.7223596,476.8023,212825,212824.9
1.632808e+07,10042.67,0.6826282,456.7506,201207,201207.3
1.632808e+07,9825.884,0.6470769,437.9541,190741,190740.7
1.632808e+07,9603.911,0.6127568,417.6115,179930,179929.8
1.632808e+07,9381.88,0.5804104,396.9728,169413,169413
1.632808e+07,9173.474,0.5500804,375.7937,159247,159247
1.632808e+07,8963.101,0.5218886,352.0448,148602,148601.6
1.632808e+07,8764.419,0.4959014,328.7009,138763,138763.3
1.632808e+07,8572.834,0.4719851,308.9208,130631,130630.9
1.632808e+07,8389.376,0.4497255,295.5738,124847,124846.8
1.632808e+07,8203.636,0.4286991,286.5064,120435,120435.1
1.632809e+07,8017.454,0.4086338,280.2202,116876,116875.8
1.632809e+07,7829.776,0.3893728,275.5109,113774,113773.8
1.632809e+07,7640.097,0.3708281,271.7161,110922,110921.8
1.632809e+07,7444.293,0.3529422,268.5658,108197,108197.3
1.632809e+07,7253.768,0.3356681,266.1081,105716,105716.2
1.632809e+07,7052.837,0.3189671,264.0384,103243,103242.6
1.632809e+07,6857.18,0.3028067,262.4365,100945,100945.3
1.632809e+07,6650.783,0.2871599,261.0986,98615,98615.14
1.632809e+07,6449.828,0.2720036,260.0717,96419,96418.52
1.632809e+07,6242.114,0.2573181,259.2358,94206,94206.24
1.63281e+07,6031.76,0.2430864,258.5731,92013,92012.65
1.63281e+07,5814.544,0.2292934,258.0397,89785,89785.45
1.63281e+07,5603.398,0.2159259,257.6345,87648,87648.48
1.63281e+07,5381.18,0.2029716,257.2992,85422,85421.57
1.63281e+07,5165.414,0.1904194,257.0403,83275,83275.04
1.63281e+07,4938.599,0.1782591,256.8188,81030,81030.09
1.63281e+07,4714.123,0.1664809,256.6348,78816,78815.74
1.63281e+07,4492.224,0.1550754,256.4745,76631,76630.8
1.63281e+07,4259.378,0.144034,256.3184,74340,74339.52
1.63281e+07,4033.965,0.1333479,256.1705,72121,72120.57
1.632811e+07,3802.352,0.1230088,256.0147,69838,69837.93
1.632811e+07,3564.568,0.1130085,255.8444,67490,67490.06
1.632811e+07,3334.758,0.103339,255.665,65215,65215.45
1.632811e+07,3094.283,0.09399235,255.4574,62828,62828.43
1.632811e+07,2862.116,0.0849608,255.2343,60516,60516.33
1.632811e+07,2624.187,0.07623672,254.9793,58138,58138.39
1.632811e+07,2385.335,0.06781253,254.6937,55742,55741.93
1.632811e+07,2140.868,0.05968074,254.3681,53279,53278.8
1.632811e+07,1905.294,0.0518341,254.0199,50895,50894.82
1.632811e+07,1659.492,0.04426534,253.618,48396,48395.77
1.632812e+07,1418.007,0.0368241,253.1824,45929,45928.5
1.632812e+07,1180.967,0.02993315,252.7127,43494,43494.4
1.632812e+07,933.9528,0.02302299,252.1762,40944,40944.26
1.632812e+07,690.6283,0.01660021,237.3473,34934,34934.14
1.632812e+07,485.9552,0.01128218,203.697,25510,25509.59
1.632812e+07,306.5843,0.006685801,160.1254,15826,15826.13
1.632812e+07,174.6209,0.003479399,113.0487,8103,8102.536
1.632812e+07,87.81529,0.00124393,60.13364,2669,2669.37
1.632812e+07,58.85869,0.0002701807,4.539712,588,587.6516
1.632812e+07,59.92111,4.58267e-06,2.498869,591,590.8895
