time,altitude,phase,airspeed,specific_energy
1.162518e+07,73053.46,211.1381,2094.534,2832186,2832186
1.162519e+07,73059.53,209.3585,2094.557,2832281,2832281
1.16252e+07,73016.81,207.5825,2094.578,2831993,2831993
1.162521e+07,73015.99,205.7957,2094.592,2832016,2832016
1.162522e+07,73012.47,204.009,2094.606,2832017,2832017
1.162523e+07,73008.75,202.2329,2094.619,2832016,2832016
1.162524e+07,73005.06,200.4461,2094.632,2832015,2832015
1.162525e+07,72997.62,198.668,2074.26,2789492,2789492
1.162526e+07,72977.81,196.9091,2074.335,2789494,2789494
1.162527e+07,72944.05,195.1394,2074.463,2789495,2789495
1.162528e+07,72896.05,193.3695,2074.641,2789491,2789491
1.162529e+07,72834.75,191.6099,2074.869,2789486,2789486
1.16253e+07,72759.7,189.8393,2075.149,2789482,2789482
1.162531e+07,72671.15,188.0682,2075.48,2789477,2789477
1.162532e+07,72569.7,186.3072,2075.858,2789471,2789471
1.162533e+07,72454.27,184.535,2076.288,2789463,2789463
1.162534e+07,72325.75,182.762,2076.768,2789455,2789455
1.162535e+07,72185.67,180.9989,2077.293,2789451,2789451
1.162536e+07,72031.65,179.2243,2077.869,2789445,2789445
1.162537e+07,71864.25,177.4488,2078.493,2789433,2789433
1.162538e+07,71685.64,175.6829,2079.16,2789422,2789422
1.162539e+07,71493.79,173.9054,2079.877,2789411,2789411
1.16254e+07,71289.6,172.1266,2080.639,2789398,2789398
1.162541e+07,71075.19,170.3574,2081.442,2789387,2789387
1.162542e+07,70847.59,168.5761,2082.292,2789373,2789373
1.162543e+07,70608.3,166.7936,2083.186,2789357,2789357
1.162544e+07,70360.15,165.0202,2084.116,2789345,2789345
1.162545e+07,70099.11,163.2348,2085.092,2789329,2789329
1.162546e+07,69828.22,161.4513,2086.106,2789312,2789312
1.162547e+07,69547.37,159.6662,2087.155,2789291,2789291
1.162548e+07,69256.04,157.8795,2088.238,2789256,2789256
1.162549e+07,68955.91,156.091,2089.352,2789217,2789217
1.16255e+07,68645.77,154.3008,2090.496,2789159,2789159
1.162551e+07,68327.39,152.5088,2091.667,2789094,2789094
1.162552e+07,67999.98,150.7148,2092.865,2789010,2789010
1.162553e+07,67664.67,148.919,2094.086,2788913,2788913
1.162554e+07,67321.41,147.1212,2095.33,2788798,2788798
1.162555e+07,66970.67,145.3214,2096.593,2788663,2788663
1.162556e+07,66612.94,143.5196,2097.873,2788508,2788508
1.162557e+07,66248.31,141.7157,2099.169,2788329,2788329
1.162558e+07,65877.53,139.9097,2100.478,2788128,2788128
1.162559e+07,65500.58,138.1015,2101.799,2787900,2787900
1.16256e+07,65118.19,136.2912,2103.129,2787647,2787647
1.162561e+07,64730.47,134.4787,2104.467,2787366,2787366
1.162562e+07,64337.92,132.664,2105.811,2787056,2787056
1.162563e+07,63940.98,130.847,2107.159,2786718,2786718
1.162564e+07,63539.7,129.0278,2108.509,2786348,2786348
1.162565e+07,63135.06,127.2063,2109.859,2785950,2785950
1.162566e+07,62726.48,125.3826,2111.208,2785515,2785515
1.162567e+07,62315.57,123.5565,2112.555,2785053,2785053
1.162568e+07,61901.19,121.7282,2113.896,2784550,2784550
1.162569e+07,61485.31,119.8976,2115.23,2784019,2784019
1.16257e+07,61066.65,118.0646,2116.555,2783441,2783441
1.162571e+07,60646.97,116.2294,2117.866,2782825,2782825
1.162572e+07,60225.53,114.3918,2119.162,2782159,2782159
1.162573e+07,59803.14,112.552,2120.439,2781443,2781443
1.162574e+07,59380.25,110.7099,2121.694,2780673,2780673
1.162575e+07,58956.33,108.8655,2122.923,2779837,2779837
1.162576e+07,58532.96,107.0189,2124.123,2778941,2778941
1.162577e+07,58108.76,105.1701,2125.291,2777967,2777967
1.162578e+07,57685.57,103.319,2126.424,2776925,2776925
1.162579e+07,57262.6,101.4658,2127.521,2775802,2775802
1.16258e+07,56839.72,99.61052,2128.578,2774593,2774593
1.162581e+07,56417.93,97.75309,2129.593,2773301,2773301
1.162582e+07,55996.77,95.89361,2130.563,2771916,2771916
1.162583e+07,55577.44,94.0321,2131.487,2770441,2770441
1.162584e+07,55158.17,92.16861,2132.36,2768857,2768857
1.162585e+07,54740.33,90.3032,2133.181,2767168,2767168
1.162586e+07,54323.46,88.43589,2133.945,2765363,2765363
1.162587e+07,53907.21,86.56675,2134.65,2763433,2763433
1.162588e+07,53492.52,84.69583,2135.292,2761379,2761379
1.162589e+07,53077.67,82.82319,2135.869,2759178,2759178
1.16259e+07,52664,80.94888,2136.376,2756835,2756835
1.162591e+07,52250.33,79.07297,2136.81,2754332,2754332
1.162592e+07,51836.45,77.19552,2137.168,2751660,2751660
1.162593e+07,51422.86,75.3166,2137.446,2748815,2748815
1.162594e+07,51007.64,73.43627,2137.638,2745770,2745770
1.162595e+07,50591.98,71.55462,2137.737,2742516,2742516
1.162596e+07,50174.16,69.67173,2137.736,2739028,2739028
1.162597e+07,49753.88,67.78767,2137.633,2735295,2735295
1.162598e+07,49331.16,65.90253,2137.422,2731307,2731307
1.162599e+07,48903.74,64.0164,2137.1,2727036,2727036
1.1626e+07,48472.53,62.12936,2136.66,2722478,2722478
1.162601e+07,48035.19,60.24151,2136.097,2717601,2717601
1.162602e+07,47591.21,58.35295,2135.404,2712387,2712387
1.162603e+07,47139.99,56.46377,2134.573,2706811,2706811
1.162604e+07,46678.83,54.57408,2133.593,2700831,2700831
1.162605e+07,46208.25,52.68398,2132.455,2694427,2694427
1.162606e+07,45725.06,50.79359,2131.145,2687547,2687547
1.162607e+07,45229.49,48.90305,2129.653,2680169,2680169
1.162608e+07,44716.91,47.00869,2127.952,2672198,2672198
1.162609e+07,44186.52,45.11445,2126.028,2663597,2663597
1.16261e+07,43640.61,43.23184,2123.872,2654367,2654367
1.162611e+07,43069.48,41.33834,2121.431,2644315,2644315
1.162612e+07,42473.49,39.44549,2118.688,2633405,2633405
1.162613e+07,41854.62,37.56485,2115.624,2621620,2621620
1.162614e+07,41202.32,35.674,2112.167,2608718,2608718
1.162615e+07,40515.99,33.78456,2108.273,2594601,2594601
1.162616e+07,39796.56,31.90818,2103.866,2579121,2579121
1.162617e+07,39032.18,30.02269,2098.789,2561853,2561853
1.162618e+07,38222.43,28.13993,2092.926,2542555,2542555
1.162619e+07,37366.59,26.27185,2086.11,2520885,2520885
1.16262e+07,36448.87,24.39686,2077.902,2495809,2495809
1.162621e+07,35468.91,22.52752,2067.942,2466609,2466609
1.162622e+07,34425.71,20.67662,2055.804,2432447,2432447
1.162623e+07,33296.68,18.82406,2040.683,2391555,2391555
1.162624e+07,32077.71,16.98392,2021.799,2342446,2342446
1.162625e+07,30767.24,15.1709,1998.07,2283149,2283149
1.162626e+07,29336.33,13.36843,1967.252,2209320,2209320
1.162627e+07,27774.16,11.59507,1926.558,2116133,2116133
1.162628e+07,26074.01,9.871924,1872.376,1997945,1997945
1.162629e+07,24201.18,8.193245,1799.266,1846810,1846810
1.16263e+07,22145.8,6.589911,1701.071,1656266,1656266
1.162631e+07,19898.83,5.095692,1569.22,1420103,1420103
1.162632e+07,17491.91,3.752934,1374.933,1111898,1111898
1.162633e+07,14950.59,2.602238,1141.742,794838,794838.4
1.162633e+07,14687.02,2.497734,1116.518,763895,763895
1.162633e+07,14438.48,2.401608,1092.595,735148,735147.8
1.162634e+07,14174.04,2.301865,1067.001,705037,705037.1
1.162634e+07,13909.35,2.204604,1041.242,675406,675406.1
1.162634e+07,13660.14,2.115349,1016.866,647987,647986.6
1.162634e+07,13395.4,2.022959,990.8456,619383,619382.8
1.162634e+07,13130.83,1.933099,964.7214,591355,591355.4
1.162634e+07,12882.1,1.850849,940.0584,565530,565529.8
1.162634e+07,12618.24,1.765938,913.7947,538704,538704.3
1.162634e+07,12354.91,1.683592,887.4931,512538,512537.8
1.162634e+07,12107.69,1.608438,862.7266,488536,488535.8
1.162634e+07,11845.78,1.531087,836.4259,463722,463722.4
1.162635e+07,11584.79,1.456313,810.1682,439642,439642.3
1.162635e+07,11340.13,1.388292,785.5232,417669,417669.1
1.162635e+07,11081.36,1.318516,759.4427,395077,395077
1.162635e+07,10823.99,1.251304,733.5071,373282,373282.4
1.162635e+07,10583.19,1.190376,709.2654,353515,353515.4
1.162635e+07,10329.07,1.128102,683.7287,333322,333321.8
1.162635e+07,10076.91,1.068342,658.4637,313976,313975.7
1.162635e+07,9841.559,1.014371,634.9757,296552,296552.3
1.162635e+07,9593.793,0.959414,610.3755,278881,278881.4
1.162635e+07,9348.57,0.9068813,586.1912,262082,262081.7
1.162636e+07,9120.25,0.8596179,563.8352,247055,247055
1.162636e+07,8880.454,0.8116771,540.5217,231899,231899.2
1.162636e+07,8643.689,0.766039,517.7324,217585,217585.3
1.162636e+07,8423.705,0.7251405,496.8896,204914,204914.3
1.162636e+07,8193.054,0.6838108,475.4284,192280,192280.2
1.162636e+07,7965.623,0.6446097,454.6148,180430,180429.9
1.162636e+07,7754.61,0.6096137,435.4431,169882,169881.8
1.162636e+07,7533.856,0.5744173,415.1605,159145,159144.8
1.162636e+07,7317.531,0.5413309,392.7473,148021,148021.1
1.162636e+07,7119.915,0.5123382,368.3241,136835,136835
1.162637e+07,6918.324,0.4840251,341.013,125217,125217.2
1.162637e+07,6725.072,0.4581495,318.6824,115999,115998.7
1.162637e+07,6547.217,0.4354643,305.7973,110269,110269.2
1.162637e+07,6358.752,0.4125771,297.496,105956,105956.1
1.162637e+07,6168.708,0.3906301,292.0809,102534,102534.4
1.162637e+07,5987.479,0.3706868,288.3538,99711,99710.91
1.162637e+07,5792.01,0.3501748,285.1378,96909,96908.94
1.162637e+07,5593.432,0.3303171,282.3965,94220,94220.08
1.162637e+07,5403.67,0.312195,280.1764,91768,91768.3
1.162637e+07,5199.013,0.2935161,278.1381,89227,89227.32
1.162638e+07,4991.27,0.2754062,276.3756,86736,86735.55
1.162638e+07,4792.987,0.2588618,274.9254,84423,84422.65
1.162638e+07,4579.465,0.2417967,273.5667,81988,81988.4
1.162638e+07,4363.115,0.2252435,272.3599,79569,79568.6
1.162638e+07,4157.017,0.210118,271.3346,77297,77297.14
1.162638e+07,3935.532,0.1945166,270.3364,74884,74883.77
1.162638e+07,3711.601,0.1793869,269.4085,72465,72465.06
1.162638e+07,3498.732,0.1655685,268.5806,70180,70179.68
1.162638e+07,3270.455,0.151325,267.7314,67738,67738.39
1.162638e+07,3040.154,0.1375252,266.8975,65281,65280.56
1.162639e+07,2821.686,0.124936,266.1134,62950,62949.92
1.162639e+07,2587.887,0.1119773,265.2684,60453,60453.16
1.162639e+07,2352.515,0.09944264,264.3993,57934,57933.69
1.162639e+07,2129.692,0.08802756,263.5514,55541,55540.95
1.162639e+07,1891.731,0.07607408,262.575,52966,52966.05
1.162639e+07,1652.682,0.06476261,261.6033,50381,50380.9
1.162639e+07,1426.818,0.05448225,260.65,47928,47928.32
1.162639e+07,1186.052,0.04394164,259.5943,45303,45302.84
1.162639e+07,947.9412,0.03388956,242.0154,38567,38567.19
1.162639e+07,751.641,0.02588554,204.6192,28296,28296.37
1.16264e+07,577.1584,0.01905061,167.0481,19607,19607.08
1.16264e+07,436.84,0.0137528,130.7005,12822,12822.13
1.16264e+07,335.6379,0.01001385,97.07331,8001,8001.257
1.16264e+07,260.9738,0.00722175,61.59457,4455,4455.111
1.16264e+07,219.9263,0.005506868,31.46407,2651,2650.944
1.16264e+07,196.1078,0.004433418,24.70574,2228,2227.719
1.16264e+07,168.2444,0.003459173,33.87265,2223,2223.129
1.16264e+07,132.7371,0.002506902,33.43664,1860,1860.423
1.16264e+07,107.5147,0.001784799,22.35142,1304,1303.963
1.16264e+07,90.01879,0.001217387,14.62345,990,989.573
1.162641e+07,78.74918,0.0008126767,9.571311,818,817.9693
1.162641e+07,71.82862,0.0005290769,6.485649,725,725.3456
1.162641e+07,67.02514,0.0002973049,4.218184,666,666.1152
1.162641e+07,64.18959,0.0001321272,2.551349,633,632.6722
1.162641e+07,62.74976,0,1.758152,617,616.8462
