time,altitude,phase,airspeed,ergy
6.69779e+06,70534.3,271.291,2099.48,2.82286e+06,2.82286e+06
6.6978e+06,70514.4,269.488,2097.72,2.81900e+06,2.819e+06
6.69781e+06,70548.8,267.699,2097.42,2.81865e+06,2.81865e+06
6.69782e+06,70571.9,265.91,2097.33,2.81864e+06,2.81864e+06
6.69783e+06,70592.8,264.109,2089.78,2.803e+06,2.803e+06
6.69784e+06,70608.2,262.324,2089.73,2.803e+06,2.803e+06
6.69785e+06,70615.4,260.545,2089.7,2.803e+06,2.803e+06
6.69786e+06,70615.9,258.702,2089.69,2.80299e+06,2.80299e+06
6.69787e+06,70609.9,256.96,2089.71,2.80299e+06,2.80299e+06
6.69788e+06,70596.8,255.117,2089.76,2.80299e+06,2.80299e+06
6.69789e+06,70578,253.375,2089.83,2.80298e+06,2.80298e+06
6.6979e+06,70551.4,251.532,2089.93,2.80298e+06,2.80298e+06
6.69791e+06,70519.9,249.789,2090.04,2.80297e+06,2.80297e+06
6.69792e+06,70482.2,248.046,2090.18,2.80297e+06,2.80297e+06
6.69793e+06,70435.8,246.202,2090.36,2.80296e+06,2.80296e+06
6.69794e+06,70385.6,244.459,2090.54,2.80295e+06,2.80296e+06
6.69795e+06,70326,242.614,2090.76,2.80295e+06,2.80295e+06
6.69796e+06,70263.6,240.87,2090.99,2.80294e+06,2.80295e+06
6.69797e+06,70191.2,239.025,2091.26,2.80293e+06,2.80294e+06
6.69798e+06,70116.7,237.28,2091.54,2.80293e+06,2.80293e+06
6.69799e+06,70036.6,235.535,2091.84,2.80292e+06,2.80292e+06
6.698e+06,69950.1,233.742,2092.16,2.80291e+06,2.80291e+06
6.69801e+06,69858.9,231.963,2092.5,2.80290e+06,2.80291e+06
6.69802e+06,69759.8,230.145,2092.86,2.80289e+06,2.80289e+06
6.69803e+06,69655.2,228.338,2093.25,2.80288e+06,2.80288e+06
6.69804e+06,69546.4,226.575,2093.65,2.80285e+06,2.80286e+06
6.69805e+06,69421.9,224.654,2094.1,2.80282e+06,2.80283e+06
6.69806e+06,69302.4,222.89,2094.54,2.80278e+06,2.80279e+06
6.69807e+06,69178,221.126,2094.98,2.80274e+06,2.80275e+06
6.69808e+06,69048.7,219.36,2095.45,2.8027e+06,2.8027e+06
6.69809e+06,68914.8,217.594,2095.92,2.80264e+06,2.80265e+06
6.6981e+06,68763.8,215.669,2096.46,2.80257e+06,2.80258e+06
6.69811e+06,68620.6,213.902,2096.96,2.80249e+06,2.8025e+06
6.69812e+06,68473.1,212.133,2097.48,2.80241e+06,2.80242e+06
6.69813e+06,68321.5,210.364,2098,2.80231e+06,2.80232e+06
6.69814e+06,68166,208.593,2098.54,2.80221e+06,2.80222e+06
6.69815e+06,68006.7,206.822,2099.09,2.8021e+06,2.80211e+06
6.69816e+06,67828.9,204.892,2099.69,2.80196e+06,2.80197e+06
6.69817e+06,67662.1,203.119,2100.26,2.80182e+06,2.80183e+06
6.69818e+06,67491.9,201.345,2100.83,2.80167e+06,2.80168e+06
6.69819e+06,67318.6,199.57,2101.4,2.80150e+06,2.80152e+06
6.6982e+06,67142.1,197.794,2101.98,2.80133e+06,2.80134e+06
6.69821e+06,66946.6,195.858,2102.62,2.80112e+06,2.80113e+06
6.69822e+06,66764.3,194.081,2103.21,2.80091e+06,2.80092e+06
6.69823e+06,66579.4,192.302,2103.8,2.80068e+06,2.80069e+06
6.69824e+06,66392,190.522,2104.39,2.80044e+06,2.80045e+06
6.69825e+06,66202.3,188.741,2104.99,2.80018e+06,2.8002e+06
6.69826e+06,66010.4,186.959,2105.58,2.79991e+06,2.79992e+06
6.69827e+06,65799.1,185.017,2106.23,2.79959e+06,2.7996e+06
6.69828e+06,65603.1,183.233,2106.82,2.79928e+06,2.79929e+06
6.69829e+06,65405.3,181.448,2107.42,2.79895e+06,2.79896e+06
6.6983e+06,65206,179.662,2108.01,2.7986e+06,2.79861e+06
6.69831e+06,65005.1,177.875,2108.59,2.79824e+06,2.79825e+06
6.69832e+06,64784.7,175.927,2109.23,2.79782e+06,2.79783e+06
6.69833e+06,64581.1,174.138,2109.81,2.79741e+06,2.79743e+06
6.69834e+06,64376.3,172.347,2110.39,2.79699e+06,2.79701e+06
6.69835e+06,64170.5,170.556,2110.96,2.79655e+06,2.79656e+06
6.69836e+06,63963.7,168.764,2111.52,2.79609e+06,2.7961e+06
6.69837e+06,63756.2,166.97,2112.08,2.79561e+06,2.79562e+06
6.69838e+06,63535.4,165.069,2112.67,2.79508e+06,2.79509e+06
6.69839e+06,63333,163.314,2113.19,2.79458e+06,2.79458e+06
6.6984e+06,63123.3,161.5,2113.73,2.79404e+06,2.79404e+06
6.69841e+06,62913.1,159.684,2114.27,2.79347e+06,2.79348e+06
6.69842e+06,62697.8,157.827,2114.8,2.79288e+06,2.79288e+06
6.69843e+06,62487.2,156.022,2115.32,2.79228e+06,2.79229e+06
6.69844e+06,62272.9,154.189,2115.84,2.79165e+06,2.79166e+06
6.69845e+06,62058.4,152.354,2116.35,2.791e+06,2.79101e+06
6.69846e+06,61843.6,150.519,2116.85,2.79033e+06,2.79034e+06
6.69847e+06,61628.7,148.682,2117.34,2.78963e+06,2.78964e+06
6.69848e+06,61413.7,146.844,2117.82,2.78892e+06,2.78893e+06
6.69849e+06,61198.7,145.006,2118.29,2.78818e+06,2.78819e+06
6.6985e+06,60968.6,143.04,2118.78,2.78736e+06,2.78737e+06
6.69851e+06,60756.7,141.232,2119.23,2.78658e+06,2.78659e+06
6.69852e+06,60544.7,139.424,2119.65,2.78577e+06,2.78579e+06
6.69853e+06,60339,137.665,2120.06,2.78497e+06,2.78497e+06
6.69854e+06,60125.4,135.828,2120.46,2.7841e+06,2.7841e+06
6.69855e+06,59913.2,133.995,2120.85,2.7832e+06,2.7832e+06
6.69856e+06,59699.5,132.153,2121.22,2.78226e+06,2.78227e+06
6.69857e+06,59485.8,130.31,2121.58,2.78129e+06,2.7813e+06
6.69858e+06,59271.8,128.467,2121.93,2.78029e+06,2.78029e+06
6.69859e+06,59057.6,126.622,2122.26,2.77925e+06,2.77925e+06
6.6986e+06,58833.8,124.695,2122.59,2.77812e+06,2.77813e+06
6.69861e+06,58622,122.893,2122.88,2.77702e+06,2.77704e+06
6.69862e+06,58397.7,120.987,2123.18,2.77582e+06,2.77583e+06
6.69863e+06,58184.9,119.183,2123.44,2.77464e+06,2.77465e+06
6.69864e+06,57971.4,117.379,2123.68,2.77342e+06,2.77343e+06
6.69865e+06,57744.7,115.47,2123.92,2.77208e+06,2.77209e+06
6.69866e+06,57529.3,113.664,2124.13,2.77076e+06,2.77078e+06
6.69867e+06,57300.3,111.753,2124.33,2.76932e+06,2.76934e+06
6.69868e+06,57082.3,109.946,2124.51,2.76791e+06,2.76793e+06
6.69869e+06,56850.2,108.034,2124.68,2.76637e+06,2.76638e+06
6.6987e+06,56630.8,106.239,2124.82,2.76487e+06,2.76488e+06
6.69871e+06,56396.7,104.34,2124.94,2.76322e+06,2.76324e+06
6.69872e+06,56173.3,102.545,2125.05,2.76162e+06,2.76163e+06
6.69873e+06,55932.4,100.629,2125.14,2.75984e+06,2.75986e+06
6.69874e+06,55701.9,98.8175,2125.22,2.7581e+06,2.75812e+06
6.69875e+06,55455,96.9007,2125.27,2.7562e+06,2.75621e+06
6.69876e+06,55218.1,95.0873,2125.31,2.75432e+06,2.75434e+06
6.69877e+06,54977.7,93.2732,2125.33,2.75239e+06,2.7524e+06
6.69878e+06,54719.4,91.3543,2125.33,2.75026e+06,2.75028e+06
6.69879e+06,54470.7,89.5388,2125.31,2.74817e+06,2.74819e+06
6.6988e+06,54202.8,87.6184,2125.27,2.74588e+06,2.7459e+06
6.69881e+06,53944.4,85.8015,2125.21,2.74362e+06,2.74364e+06
6.69882e+06,53665.3,83.8797,2125.13,2.74114e+06,2.74116e+06
6.69883e+06,53395.3,82.0615,2125.03,2.73869e+06,2.73871e+06
6.69884e+06,53119.1,80.2426,2124.91,2.73615e+06,2.73616e+06
6.69885e+06,52819.8,78.3187,2124.75,2.73334e+06,2.73335e+06
6.69886e+06,52529.2,76.4984,2124.58,2.73056e+06,2.73058e+06
6.69887e+06,52213.5,74.5731,2124.36,2.72749e+06,2.72751e+06
6.69888e+06,51906.4,72.7515,2124.13,2.72444e+06,2.72446e+06
6.69889e+06,51571.9,70.8247,2123.85,2.72107e+06,2.72109e+06
6.6989e+06,51248.5,69.0202,2123.55,2.71776e+06,2.71777e+06
6.69891e+06,50908,67.1668,2123.21,2.71418e+06,2.7142e+06
6.69892e+06,50556.1,65.3127,2122.82,2.71043e+06,2.71044e+06
6.69893e+06,50192.1,63.458,2122.38,2.70647e+06,2.70648e+06
6.69894e+06,49804.4,61.5503,2121.88,2.70216e+06,2.70218e+06
6.69895e+06,49413.3,59.6943,2121.34,2.69774e+06,2.69775e+06
6.69896e+06,49007.5,57.8377,2120.73,2.69305e+06,2.69306e+06
6.69897e+06,48573.7,55.9281,2120.04,2.68793e+06,2.68795e+06
6.69898e+06,48134.7,54.0703,2119.28,2.68263e+06,2.68265e+06
6.69899e+06,47677.6,52.212,2118.43,2.67699e+06,2.677e+06
6.699e+06,47201.3,50.3531,2117.47,2.67095e+06,2.67097e+06
6.69901e+06,46689.9,48.4414,2116.36,2.6643e+06,2.66431e+06
6.69902e+06,46170.2,46.5816,2115.15,2.65733e+06,2.65735e+06
6.69903e+06,45626.7,44.7216,2113.76,2.6498e+06,2.64982e+06
6.69904e+06,45041.3,42.8088,2112.12,2.64138e+06,2.6414e+06
6.69905e+06,44444.2,40.9484,2110.29,2.63243e+06,2.63245e+06
6.69906e+06,43817.5,39.088,2108.18,2.62264e+06,2.62266e+06
6.69907e+06,43159.1,37.2279,2105.74,2.6119e+06,2.61192e+06
6.69908e+06,42446.2,35.3158,2102.85,2.59972e+06,2.59975e+06
6.69909e+06,41718.2,33.4644,2099.61,2.58668e+06,2.58671e+06
6.6991e+06,40927.5,31.5616,2095.77,2.57183e+06,2.57186e+06
6.69911e+06,40114.4,29.7127,2091.4,2.55569e+06,2.55572e+06
6.69912e+06,39250,27.8583,2086.25,2.53746e+06,2.53749e+06
6.69913e+06,38306.5,25.9543,2079.93,2.51614e+06,2.51617e+06
6.69914e+06,37330.5,24.1061,2072.52,2.49228e+06,2.49232e+06
6.69915e+06,36291,22.2626,2063.36,2.46429e+06,2.46433e+06
6.69916e+06,35181.4,20.4256,2051.9,2.43102e+06,2.43106e+06
6.69917e+06,33959.3,18.5457,2036.96,2.38974e+06,2.38979e+06
6.69918e+06,32682.4,16.7293,2018.39,2.34084e+06,2.34089e+06
6.69919e+06,31307.3,14.9288,1994.57,2.2809e+06,2.28095e+06
6.6992e+06,29778,13.0996,1962.5,2.20386e+06,2.20392e+06
6.69921e+06,28163.6,11.3504,1920.77,2.10843e+06,2.10849e+06
6.69922e+06,26408.3,9.64192,1864.32,1.98583e+06,1.9859e+06
6.69923e+06,24495.6,7.9902,1787.93,1.82907e+06,1.82914e+06
6.69924e+06,22381.9,6.39942,1683.68,1.62895e+06,1.62899e+06
6.69925e+06,20097.5,4.92295,1544.54,1.38346e+06,1.3835e+06
6.69926e+06,17641.9,3.59823,1344.66,1.07207e+06,1.07212e+06
6.69927e+06,15079.7,2.48167,1106.7,756597,756645
6.69928e+06,12493.4,1.60008,850.714,481828,481876
6.69928e+06,12237.5,1.52541,825.02,457891,457939
6.69929e+06,11982.6,1.45321,799.418,434695,434743
6.69929e+06,11728.9,1.38347,773.94,412260,412307
6.69929e+06,11476.4,1.31618,748.62,390601,390649
6.69929e+06,11225.4,1.25132,723.492,369734,369782
6.69929e+06,10975.9,1.18888,698.593,349673,349720
6.69929e+06,10728.2,1.12885,673.963,330426,330473
6.69929e+06,10482.3,1.07119,649.642,312003,312049
6.69929e+06,10238.5,1.01588,625.672,294408,294454
6.69929e+06,9996.81,0.962881,602.096,277643,277688
6.69929e+06,9757.4,0.912168,578.954,261705,261750
6.6993e+06,9520.39,0.863698,556.261,246573,246618
6.6993e+06,9285.92,0.817431,534.028,232224,232269
6.6993e+06,9054.12,0.773326,512.279,218642,218686
6.6993e+06,8825.1,0.731337,491.048,205811,205854
6.6993e+06,8598.99,0.691416,470.444,193752,193795
6.6993e+06,8375.83,0.653502,450.485,182434,182476
6.6993e+06,8155.73,0.617545,431.011,171751,171793
6.6993e+06,7938.9,0.583507,411.698,161544,161585
6.6993e+06,7726.09,0.55143,390.706,151089,151129
6.6993e+06,7519.06,0.521499,366.862,140079,140118
6.69931e+06,7319.58,0.493883,341.806,129294,129331
6.69931e+06,7127.76,0.468505,320.164,120295,120332
6.69931e+06,6940.65,0.444898,306.002,114069,114105
6.69931e+06,6754.69,0.422546,297.207,109634,109669
6.69931e+06,6567.7,0.401134,291.412,106134,106170
6.69931e+06,6378.56,0.380493,287.251,103114,103151
6.69931e+06,6186.75,0.360531,283.974,100336,100373
6.69931e+06,5992.08,0.341197,281.227,97688,97725.5
6.69931e+06,5794.5,0.322457,278.913,95139,95177.4
6.69931e+06,5593.98,0.30428,276.964,92667,92706
6.69932e+06,5390.53,0.286641,275.318,90253,90292.4
6.69932e+06,5184.17,0.269518,273.922,87881,87920.6
6.69932e+06,4974.98,0.252893,272.734,85538,85578.5
6.69932e+06,4763.03,0.236749,271.717,83215,83256.6
6.69932e+06,4548.4,0.221072,270.838,80904,80945.6
6.69932e+06,4331.19,0.205849,270.069,78596,78638.7
6.69932e+06,4111.49,0.191068,269.381,76286,76328.5
6.69932e+06,3889.4,0.176721,268.758,73969,74011.9
6.69932e+06,3665.03,0.162796,268.183,71641,71684.4
6.69932e+06,3438.5,0.149285,267.636,69298,69342.6
6.69933e+06,3209.93,0.136179,267.102,66938,66982.9
6.69933e+06,2979.45,0.123468,266.576,64560,64605.4
6.69933e+06,2747.19,0.111143,266.041,62161,62206.8
6.69933e+06,2513.3,0.099193,265.488,59740,59786.1
6.69933e+06,2277.93,0.0876091,264.907,57296,57342.3
6.69933e+06,2041.25,0.0763827,264.292,54829,54875
6.69933e+06,1803.41,0.0655043,263.633,52337,52383.7
6.69933e+06,1564.58,0.054965,262.924,49821,49868
6.69933e+06,1324.93,0.0447568,262.158,47281,47327.8
6.69933e+06,1084.6,0.0348723,261.327,44716,44763
6.69934e+06,861.251,0.02579,226.648,34077,34118.5
6.69934e+06,679.914,0.0202901,165.915,20394,20424
6.69934e+06,543.11,0.0152936,128.276,13525,13548.6
6.69934e+06,437.471,0.0117231,98.8885,9158,9176.46
6.69934e+06,355.12,0.00908793,76.5788,6398,6412.63
6.69934e+06,291.02,0.00655238,59.3737,4604,4615.17
6.69934e+06,241.098,0.00475652,45.977,3412,3420.35
6.69934e+06,202.213,0.00337925,35.6144,2610,2616.55
6.69934e+06,171.909,0.00240668,27.5908,2061,2065.99
6.69934e+06,147.862,0.00172092,21.2842,1672,1676.18
6.69935e+06,129.205,0.00125748,16.4187,1398,1401.58
6.69935e+06,114.731,0.000945629,12.6761,1203,1205.25
6.69935e+06,100.869,0.000753054,18.4212,1155,1158.69
6.69935e+06,84.7157,0.000556037,14.2421,929,932.078
6.69935e+06,72.1742,0.000408592,11.0921,767,769.22
6.69935e+06,62.3895,0.000305265,8.63797,647,649.076
6.69935e+06,54.7732,0.000231796,6.71156,558,559.615
6.69935e+06,48.8509,0.000178113,5.21831,492,492.64
6.69935e+06,44.2441,0.000138548,4.05697,441,442.084
6.69935e+06,40.662,0.000108917,3.15317,403,403.702
6.69936e+06,37.8773,8.63302e-05,2.45133,374,374.43
6.69936e+06,35.7121,6.89766e-05,1.90457,352,352.009
6.69936e+06,34.0346,5.58856e-05,1.46659,335,334.822
6.69936e+06,32.7661,4.62839e-05,1.08521,322,321.897
6.69936e+06,31.8631,3.81425e-05,0.760125,313,312.742
6.69936e+06,31.2118,3.05522e-05,0.556394,306,306.222
6.69936e+06,30.7371,2.28024e-05,0.408412,301,301.496
6.69936e+06,30.4096,1.63709e-05,0.267357,298,298.236
6.69936e+06,30.1926,1.16024e-05,0.177117,296,296.089
6.69936e+06,30.0604,6.51462e-06,0.104225,295,294.782
6.69937e+06,30.0074,0,0.0866123,294,294.261
